# energy(eV) alpha
0.000000000000000000e+00 0.000000000000000000e+00
1.890000000000000013e-02 3.180225846562820635e+01
3.780000000000000027e-02 1.276435494567358688e+02
5.670000000000000040e-02 2.890211403936858687e+02
7.560000000000000053e-02 5.183465913083903160e+02
9.450000000000000067e-02 8.190843080716896338e+02
1.134000000000000008e-01 1.196074105693955062e+03
1.323000000000000009e-01 1.655340969986011714e+03
1.511000000000000121e-01 2.202954162266199546e+03
1.700000000000000122e-01 2.851084095291962058e+03
1.889000000000000123e-01 3.610000138999992942e+03
2.078000000000000125e-01 4.493609827422654234e+03
2.267000000000000126e-01 5.519140110754144189e+03
2.456000000000000127e-01 6.707577262803812118e+03
2.645000000000000129e-01 8.084635570529035249e+03
2.833999999999999853e-01 9.681889753313123947e+03
3.023000000000000131e-01 1.153825888135350033e+04
3.211999999999999855e-01 1.370212701519535403e+04
3.401000000000000134e-01 1.623474582052051846e+04
3.589999999999999858e-01 1.921239441298521342e+04
3.779000000000000137e-01 2.273292443769747479e+04
3.967999999999999861e-01 2.692097798064524250e+04
4.157000000000000139e-01 3.193824552677493557e+04
4.345999999999999863e-01 3.799403161789043224e+04
4.534000000000000252e-01 4.535152564357205847e+04
4.722999999999999976e-01 5.438387478093699610e+04
4.912000000000000255e-01 6.553889461643177492e+04
5.100999999999999979e-01 7.938888285491021816e+04
5.290000000000000258e-01 9.661629694205375563e+04
5.479000000000000536e-01 1.179635938068216492e+05
5.667999999999999705e-01 1.441074962278375460e+05
5.856999999999999984e-01 1.754344616035520448e+05
6.046000000000000263e-01 2.117440034961869242e+05
6.235000000000000542e-01 2.519680288165804814e+05
6.423999999999999710e-01 2.940570912942606374e+05
6.612999999999999989e-01 3.351657621022465755e+05
6.802000000000000268e-01 3.721568170071381028e+05
6.991000000000000547e-01 4.022824161409882945e+05
7.179999999999999716e-01 4.237854297748561949e+05
7.368999999999999995e-01 4.361910721033100854e+05
7.557000000000000384e-01 4.401405761870470014e+05
7.745999999999999552e-01 4.372282625205859076e+05
7.934999999999999831e-01 4.291544623996567097e+05
8.124000000000000110e-01 4.175620698234895244e+05
8.313000000000000389e-01 4.037641939390732441e+05
8.501999999999999558e-01 3.886905045445107971e+05
8.690999999999999837e-01 3.729388378558075638e+05
8.880000000000000115e-01 3.568563803235962987e+05
9.069000000000000394e-01 3.406215913863941678e+05
9.257999999999999563e-01 3.243054084188311826e+05
9.446999999999999842e-01 3.079144258256191970e+05
9.636000000000000121e-01 2.914181393957733526e+05
9.825000000000000400e-01 2.747652024560349528e+05
1.001400000000000068e+00 2.579031551649347239e+05
1.020299999999999985e+00 2.407899741695934790e+05
1.039199999999999902e+00 2.234113640990561689e+05
1.058000000000000052e+00 2.057898339690278517e+05
1.076899999999999968e+00 1.880971132722113398e+05
1.095800000000000107e+00 1.705664656625425268e+05
1.114700000000000024e+00 1.535950998949287168e+05
1.133599999999999941e+00 1.376628451617709943e+05
1.152500000000000080e+00 1.232140840894547291e+05
1.171399999999999997e+00 1.105191411056496290e+05
1.190299999999999914e+00 9.962625934826463345e+04
1.209200000000000053e+00 9.040951579911934095e+04
1.228099999999999969e+00 8.264884644683274382e+04
1.247000000000000108e+00 7.612029532385975472e+04
1.265900000000000025e+00 7.061216878144256771e+04
1.284799999999999942e+00 6.594250704147064243e+04
1.303700000000000081e+00 6.196808099288027006e+04
1.322599999999999998e+00 5.857342919159342273e+04
1.341399999999999926e+00 5.566232854748611135e+04
1.360300000000000065e+00 5.317042848736113956e+04
1.379199999999999982e+00 5.102983333858499100e+04
1.398099999999999898e+00 4.919889571499772865e+04
1.417000000000000037e+00 4.764021773340214713e+04
1.435899999999999954e+00 4.631910172091440472e+04
1.454800000000000093e+00 4.521260392309411691e+04
1.473700000000000010e+00 4.430295422738635534e+04
1.492599999999999927e+00 4.357011080528875755e+04
1.511500000000000066e+00 4.300594287501616782e+04
1.530399999999999983e+00 4.259859484749763214e+04
1.549299999999999899e+00 4.233975700993923238e+04
1.568200000000000038e+00 4.222226677837895841e+04
1.587099999999999955e+00 4.224675439577150973e+04
1.606000000000000094e+00 4.241223896468964085e+04
1.624900000000000011e+00 4.271274318236203544e+04
1.643699999999999939e+00 4.315003197622395965e+04
1.662600000000000078e+00 4.373629733213361760e+04
1.681499999999999995e+00 4.446835065289845079e+04
1.700399999999999912e+00 4.535313796504675702e+04
1.719300000000000050e+00 4.640232015275788581e+04
1.738199999999999967e+00 4.762714391110355064e+04
1.757100000000000106e+00 4.903612742763447750e+04
1.776000000000000023e+00 5.064691393774990138e+04
1.794899999999999940e+00 5.247909079441329959e+04
1.813800000000000079e+00 5.455602572928516747e+04
1.832699999999999996e+00 5.690010530805524468e+04
1.851599999999999913e+00 5.954660759451926424e+04
1.870500000000000052e+00 6.253414397799255676e+04
1.889399999999999968e+00 6.590366945874730300e+04
1.908300000000000107e+00 6.971242660925819655e+04
1.927200000000000024e+00 7.402829909890973067e+04
1.945999999999999952e+00 7.892244687958167924e+04
1.964900000000000091e+00 8.450016852507280419e+04
1.983800000000000008e+00 9.088021523874209379e+04
2.002699999999999925e+00 9.821034723987268808e+04
2.021599999999999842e+00 1.066716688642985100e+05
2.040500000000000203e+00 1.164998674690876360e+05
2.059400000000000119e+00 1.279888006227900478e+05
2.078300000000000036e+00 1.415135395177408063e+05
2.097199999999999953e+00 1.575546805336522229e+05
2.116099999999999870e+00 1.767317512310019229e+05
2.134999999999999787e+00 1.998349554376392334e+05
2.153900000000000148e+00 2.278599672762284754e+05
2.172800000000000065e+00 2.620232043710922007e+05
2.191699999999999982e+00 3.037147463930567028e+05
2.210599999999999898e+00 3.543521950563167920e+05
2.229499999999999815e+00 4.150430513232591911e+05
2.248299999999999965e+00 4.860391616900420049e+05
2.267199999999999882e+00 5.661657748204673408e+05
2.286099999999999799e+00 6.521876953202278819e+05
2.305000000000000160e+00 7.388444312276608543e+05
2.323900000000000077e+00 8.195421359119419940e+05
2.342799999999999994e+00 8.877949049486044096e+05
2.361699999999999910e+00 9.389864467702276306e+05
2.380599999999999827e+00 9.718364145419646520e+05
2.399500000000000188e+00 9.889760466102269711e+05
2.418400000000000105e+00 9.962767859432356199e+05
2.437300000000000022e+00 1.000984506995775620e+06
2.456199999999999939e+00 1.009148085911351489e+06
2.475099999999999856e+00 1.023446400129838497e+06
2.494000000000000217e+00 1.042535019455653732e+06
2.512900000000000134e+00 1.062108358796268702e+06
2.531699999999999839e+00 1.076870948320470750e+06
2.550600000000000200e+00 1.082600120152767282e+06
2.569500000000000117e+00 1.077026892717106966e+06
2.588400000000000034e+00 1.060147406253388850e+06
2.607299999999999951e+00 1.033630729403534438e+06
2.626199999999999868e+00 9.999376028589388588e+05
2.645099999999999785e+00 9.615638328110196162e+05
2.664000000000000146e+00 9.205566690341160866e+05
2.682900000000000063e+00 8.783719328264840879e+05
2.701799999999999979e+00 8.359160891460395651e+05
2.720699999999999896e+00 7.936750983234809246e+05
2.739599999999999813e+00 7.518544640021992382e+05
2.758500000000000174e+00 7.104863198605236830e+05
2.777400000000000091e+00 6.694965502145102946e+05
2.796300000000000008e+00 6.287711832972692791e+05
2.815199999999999925e+00 5.881708331283516018e+05
2.834000000000000075e+00 5.475826670706516597e+05
2.852899999999999991e+00 5.069824764407541370e+05
2.871799999999999908e+00 4.664261945269406424e+05
2.890699999999999825e+00 4.261496639571681153e+05
2.909600000000000186e+00 3.866643479470630409e+05
2.928500000000000103e+00 3.487411119656375959e+05
2.947400000000000020e+00 3.133751756372496602e+05
2.966299999999999937e+00 2.814742555130030378e+05
2.985199999999999854e+00 2.536077731332716940e+05
3.004100000000000215e+00 2.298778725554362463e+05
3.023000000000000131e+00 2.099697051147327002e+05
3.041900000000000048e+00 1.934021149048678926e+05
3.060799999999999965e+00 1.796360820753795851e+05
3.079699999999999882e+00 1.681813202586993866e+05
3.098599999999999799e+00 1.586482603446872090e+05
3.117500000000000160e+00 1.506989657366490283e+05
3.136299999999999866e+00 1.440752863160515553e+05
3.155199999999999783e+00 1.385746667820919829e+05
3.174100000000000144e+00 1.340392161171676125e+05
3.193000000000000060e+00 1.303457182119571371e+05
3.211899999999999977e+00 1.273984799544939015e+05
3.230799999999999894e+00 1.251197773803443852e+05
3.249699999999999811e+00 1.234512443757671717e+05
3.268600000000000172e+00 1.223552999657876935e+05
3.287500000000000089e+00 1.218028229251914890e+05
3.306400000000000006e+00 1.217803556860138488e+05
3.325299999999999923e+00 1.222656977151879109e+05
3.344199999999999839e+00 1.232813022339512099e+05
3.363100000000000200e+00 1.248249056854107475e+05
3.382000000000000117e+00 1.269229439580985199e+05
3.400900000000000034e+00 1.296168815262590069e+05
3.419799999999999951e+00 1.329448651035707153e+05
3.438600000000000101e+00 1.369690199338974489e+05
3.457500000000000018e+00 1.417727300889285980e+05
3.476399999999999935e+00 1.474570730683759321e+05
3.495299999999999851e+00 1.541421960600681487e+05
3.514200000000000212e+00 1.620016605593660497e+05
3.533100000000000129e+00 1.712254805173930945e+05
3.552000000000000046e+00 1.820782025416049291e+05
3.570899999999999963e+00 1.948880381032798614e+05
3.589799999999999880e+00 2.100846427494275849e+05
3.608699999999999797e+00 2.282108922885987267e+05
3.627600000000000158e+00 2.499618361710170866e+05
3.646500000000000075e+00 2.762292834525984363e+05
3.665399999999999991e+00 3.081123712649772642e+05
3.684299999999999908e+00 3.469190993146675173e+05
3.703199999999999825e+00 3.940810621633669944e+05
3.721999999999999975e+00 4.508880579651234439e+05
3.740899999999999892e+00 5.181482608997867210e+05
3.759799999999999809e+00 5.955029672272725729e+05
3.778700000000000170e+00 6.809209341741910903e+05
3.797600000000000087e+00 7.704005145312245004e+05
3.816500000000000004e+00 8.583063612900873413e+05
3.835399999999999920e+00 9.383591232972986763e+05
3.854299999999999837e+00 1.004890684352071723e+06
3.873200000000000198e+00 1.053832031635000603e+06
3.892100000000000115e+00 1.082994387181614991e+06
3.911000000000000032e+00 1.091730380732109072e+06
3.929899999999999949e+00 1.080527627995385323e+06
3.948799999999999866e+00 1.051041093102486571e+06
3.967699999999999783e+00 1.006534683413802297e+06
3.986600000000000144e+00 9.522699022166061914e+05
4.005499999999999616e+00 8.953000435376925161e+05
4.024300000000000210e+00 8.433392439022916369e+05
4.043199999999999683e+00 8.033179419487749692e+05
4.062100000000000044e+00 7.801164553765375167e+05
4.081000000000000405e+00 7.766215476688324707e+05
4.099899999999999878e+00 7.944138734198509483e+05
4.118800000000000239e+00 8.345557472886869218e+05
4.137699999999999712e+00 8.978235321230376139e+05
4.156600000000000072e+00 9.843581016007664148e+05
4.175500000000000433e+00 1.092811252622482134e+06
4.194399999999999906e+00 1.219349057017251151e+06
4.213300000000000267e+00 1.356998514616784174e+06
4.232199999999999740e+00 1.496009705318072578e+06
4.251100000000000101e+00 1.625418826114082709e+06
4.269999999999999574e+00 1.735581170092934743e+06
4.288899999999999935e+00 1.820709922623960301e+06
4.307800000000000296e+00 1.880338735935483593e+06
4.326600000000000001e+00 1.918823707461632555e+06
4.345500000000000362e+00 1.943319955534409964e+06
4.364399999999999835e+00 1.960536556315766182e+06
4.383300000000000196e+00 1.974607814536778489e+06
4.402199999999999669e+00 1.986324001743932953e+06
4.421100000000000030e+00 1.993935816394602414e+06
4.440000000000000391e+00 1.994675246391867753e+06
4.458899999999999864e+00 1.986327065135634504e+06
4.477800000000000225e+00 1.968347859528342029e+06
4.496699999999999697e+00 1.942326254475232679e+06
4.515600000000000058e+00 1.911651168269696645e+06
4.534500000000000419e+00 1.880501428291755263e+06
4.553399999999999892e+00 1.852430959994525183e+06
4.572300000000000253e+00 1.829108136046912987e+06
4.591199999999999726e+00 1.809813900018171407e+06
4.610100000000000087e+00 1.791946515363953542e+06
4.628899999999999793e+00 1.772266565650967415e+06
4.647800000000000153e+00 1.748310852723447606e+06
4.666699999999999626e+00 1.718873906298647868e+06
4.685599999999999987e+00 1.684160735886630137e+06
4.704500000000000348e+00 1.645289593435698655e+06
4.723399999999999821e+00 1.603682521383756306e+06
4.742300000000000182e+00 1.560678492556771496e+06
4.761199999999999655e+00 1.517294610761536751e+06
4.780100000000000016e+00 1.474242907745976932e+06
4.799000000000000377e+00 1.432020621529455530e+06
4.817899999999999849e+00 1.390996070049358765e+06
4.836800000000000210e+00 1.351500246802796144e+06
4.855699999999999683e+00 1.313845451268685283e+06
4.874600000000000044e+00 1.278266971497025108e+06
4.893500000000000405e+00 1.244774803030216135e+06
4.912399999999999878e+00 1.213028941776540829e+06
4.931199999999999584e+00 1.182292394714627182e+06
4.950099999999999945e+00 1.151646560093050823e+06
4.969000000000000306e+00 1.120148093704265542e+06
4.987899999999999778e+00 1.087200408061889932e+06
5.006800000000000139e+00 1.052652506155447103e+06
5.025699999999999612e+00 1.016805309713186813e+06
5.044599999999999973e+00 9.802058585201790556e+05
5.063500000000000334e+00 9.434058328428015811e+05
5.082399999999999807e+00 9.067281371417522896e+05
5.101300000000000168e+00 8.700751333131303545e+05
5.120199999999999640e+00 8.329072315814067842e+05
5.139100000000000001e+00 7.945326149768653559e+05
5.158000000000000362e+00 7.544329432740377961e+05
5.176899999999999835e+00 7.127350709112868644e+05
5.195800000000000196e+00 6.704333449168839725e+05
5.214599999999999902e+00 6.294437960525727831e+05
5.233500000000000263e+00 5.922324305046010995e+05
5.252399999999999736e+00 5.611858152444587322e+05
5.271300000000000097e+00 5.380722686150404625e+05
5.290199999999999569e+00 5.238269472336151521e+05
5.309099999999999930e+00 5.188388022542007966e+05
5.328000000000000291e+00 5.233690342264108476e+05
5.346899999999999764e+00 5.378195080911995610e+05
5.365800000000000125e+00 5.629618267380687175e+05
5.384699999999999598e+00 5.999671057192067383e+05
5.403599999999999959e+00 6.503126231804185081e+05
5.422500000000000320e+00 7.154381951633933932e+05
5.441399999999999793e+00 7.961923964817576343e+05
5.460300000000000153e+00 8.920320196022766177e+05
5.479199999999999626e+00 1.000110780723882606e+06
5.498099999999999987e+00 1.114773954269729555e+06
5.516899999999999693e+00 1.227750748595720856e+06
5.535800000000000054e+00 1.329469244936432689e+06
5.554700000000000415e+00 1.410888181511424715e+06
5.573599999999999888e+00 1.465628264680118766e+06
5.592500000000000249e+00 1.491309737642706838e+06
5.611399999999999721e+00 1.489726162610338535e+06
5.630300000000000082e+00 1.465929380749509903e+06
5.649200000000000443e+00 1.426762552913070424e+06
5.668099999999999916e+00 1.379326303125700448e+06
5.687000000000000277e+00 1.329852510718973819e+06
5.705899999999999750e+00 1.283083321650189580e+06
5.724800000000000111e+00 1.242151292485667393e+06
5.743699999999999584e+00 1.208847469526678324e+06
5.762599999999999945e+00 1.184356136551931500e+06
5.781500000000000306e+00 1.170090651675698580e+06
5.800399999999999778e+00 1.168221993716080906e+06
5.819200000000000372e+00 1.181554426091078902e+06
5.838099999999999845e+00 1.212492917147136061e+06
5.857000000000000206e+00 1.261442834485997446e+06
5.875899999999999679e+00 1.325731915751632769e+06
5.894800000000000040e+00 1.399602268628335558e+06
5.913700000000000401e+00 1.475146683438543929e+06
5.932599999999999874e+00 1.544006477268705145e+06
5.951500000000000234e+00 1.599002800923298113e+06
5.970399999999999707e+00 1.635392608734143665e+06
5.989300000000000068e+00 1.651320558067477774e+06
6.008200000000000429e+00 1.647595610090231057e+06
6.027099999999999902e+00 1.626942291400345042e+06
6.046000000000000263e+00 1.593003722918556770e+06
6.064899999999999736e+00 1.549520636049481109e+06
6.083800000000000097e+00 1.499786748129416024e+06
6.102699999999999569e+00 1.446467003703961847e+06
6.121500000000000163e+00 1.391696660100015113e+06
6.140399999999999636e+00 1.337389071161489934e+06
6.159299999999999997e+00 1.285240174832083751e+06
6.178200000000000358e+00 1.236792453828472411e+06
6.197099999999999831e+00 1.193209510688254144e+06
6.216000000000000192e+00 1.155117548153839074e+06
6.234899999999999665e+00 1.122721994497547625e+06
6.253800000000000026e+00 1.096398527350344928e+06
6.272700000000000387e+00 1.077267536319424165e+06
6.291599999999999859e+00 1.067534458085954655e+06
6.310500000000000220e+00 1.069985500662332866e+06
6.329399999999999693e+00 1.086977989090257557e+06
6.348300000000000054e+00 1.119576402782584541e+06
6.367200000000000415e+00 1.167229861074310960e+06
6.386099999999999888e+00 1.227731352667483501e+06
6.404899999999999594e+00 1.297232287461692467e+06
6.423799999999999955e+00 1.370459054369817488e+06
6.442700000000000315e+00 1.441219426296239486e+06
6.461599999999999788e+00 1.503634694985924289e+06
6.480500000000000149e+00 1.553624332436360186e+06
6.499399999999999622e+00 1.589932835336433258e+06
6.518299999999999983e+00 1.614060994482660200e+06
6.537200000000000344e+00 1.629032731379843550e+06
6.556099999999999817e+00 1.637620038419304183e+06
6.575000000000000178e+00 1.641015288446413120e+06
6.593899999999999650e+00 1.638724222061900655e+06
6.612800000000000011e+00 1.629515596551143564e+06
6.631700000000000372e+00 1.612524712221010355e+06
6.650599999999999845e+00 1.587922891217108816e+06
6.669500000000000206e+00 1.556889192713292316e+06
6.688399999999999679e+00 1.521151383366202004e+06
6.707200000000000273e+00 1.482564212353436043e+06
6.726099999999999746e+00 1.443068145920790266e+06
6.745000000000000107e+00 1.404612272260358557e+06
6.763899999999999579e+00 1.369446480839225464e+06
6.782799999999999940e+00 1.340107928287494229e+06
6.801700000000000301e+00 1.319123952953220811e+06
6.820599999999999774e+00 1.308455006423528772e+06
6.839500000000000135e+00 1.308743438824396348e+06
6.858399999999999608e+00 1.318717544117758749e+06
6.877299999999999969e+00 1.335198809403345454e+06
6.896200000000000330e+00 1.353622254218681483e+06
6.915099999999999802e+00 1.369025724723848281e+06
6.934000000000000163e+00 1.377206875739463605e+06
6.952899999999999636e+00 1.375527282970133703e+06
6.971799999999999997e+00 1.363261533516368596e+06
6.990700000000000358e+00 1.341273904504993698e+06
7.009500000000000064e+00 1.311423328575300286e+06
7.028400000000000425e+00 1.276003551744749304e+06
7.047299999999999898e+00 1.237135263897169847e+06
7.066200000000000259e+00 1.196812710850140778e+06
7.085099999999999731e+00 1.156981597635079641e+06
7.104000000000000092e+00 1.119814369112877175e+06
7.122899999999999565e+00 1.087955575623617275e+06
7.141799999999999926e+00 1.064382461027569836e+06
7.160700000000000287e+00 1.051779350402068580e+06
7.179599999999999760e+00 1.051435446546969702e+06
7.198500000000000121e+00 1.062251250059175538e+06
7.217399999999999594e+00 1.080571421882190276e+06
7.236299999999999955e+00 1.101074076480196323e+06
7.255200000000000315e+00 1.118255663720408455e+06
7.274099999999999788e+00 1.127882196551358793e+06
7.293000000000000149e+00 1.128068507578054676e+06
7.311799999999999855e+00 1.119674357367906719e+06
7.330700000000000216e+00 1.106001564850358292e+06
7.349599999999999689e+00 1.091791373062988976e+06
7.368500000000000050e+00 1.081841215136961080e+06
7.387400000000000411e+00 1.079378497554722242e+06
7.406299999999999883e+00 1.084804617146658245e+06
7.425200000000000244e+00 1.095754437902706442e+06
7.444099999999999717e+00 1.108165556847085943e+06
7.463000000000000078e+00 1.117881678396643605e+06
7.481900000000000439e+00 1.122317333550219890e+06
7.500799999999999912e+00 1.121216556379003683e+06
7.519700000000000273e+00 1.116728835266892100e+06
